#1:time pb [s], 2:l0m0 3. l1m-1 4. l1m0 5. l1m1 6. l2m-2 7. l2m-1 8. l2m0 9. l2m1 10. l2m2
1.0000000000e-02 2.9441430503e+02 -3.8727855113e-07 4.4694635903e-07 -4.0655585169e-05 1.0820047634e-07 -5.1132677946e-08 2.2824908184e-02 1.8750940744e-08 1.0456461857e-05
1.1000000000e-02 3.2062800747e+02 2.0521339013e-06 6.3374402117e-06 -4.4228102675e-05 -3.5789359832e-05 1.6633571874e-07 2.4808046355e-02 -4.0819315581e-06 -6.7001254084e-06
1.2000000000e-02 4.0873413628e+02 -2.0490886865e-05 -2.8691725032e-04 -3.4127801318e-04 1.4102283939e-04 4.9777509762e-04 3.2219919605e-02 -1.5224360396e-04 1.5777157741e-04
1.3000000000e-02 4.7692125277e+02 -1.1452042026e-04 -6.1374013669e-05 4.2677960964e-04 -8.9357137171e-05 -1.5931484617e-05 3.7264578367e-02 -1.2148743231e-04 -5.8221785750e-05
1.4000000000e-02 5.3344777160e+02 -1.1492363965e-04 -1.9649090990e-04 -2.1713012672e-05 -1.0614449522e-04 -1.1008596198e-04 4.1685410173e-02 2.6004959114e-04 -5.1545532693e-03
1.5000000000e-02 5.8654535074e+02 3.3405413859e-04 4.7031166815e-04 -1.3997614375e-04 -2.9030374607e-05 1.2825477115e-04 4.5674840650e-02 -1.3928103652e-04 2.2576145917e-04
1.6000000000e-02 6.3487860970e+02 2.7758278239e-04 7.0762429527e-04 5.6044401156e-04 7.9633861171e-05 -3.7453874794e-04 4.9933558346e-02 -1.7521260719e-04 -5.7086007679e-04
1.7000000000e-02 6.9337111936e+02 2.5421670874e-04 4.3581301134e-04 1.5429218233e-05 -4.1194408390e-05 2.3465271615e-04 5.4307046852e-02 -1.4797731340e-04 1.2297388526e-04
1.8000000000e-02 7.6087579581e+02 1.5837076776e-04 7.3365137280e-04 5.3791728600e-04 -2.7907562001e-04 -3.2011430153e-04 5.9208401795e-02 5.6893752219e-05 3.0358180518e-04
1.9000000000e-02 8.2003096440e+02 -7.7893869678e-05 1.6215362345e-03 7.6770145576e-04 7.1638457958e-05 6.0087154780e-07 6.3477712530e-02 -3.8978544629e-04 -1.8501877802e-03
2.0000000000e-02 8.6517446099e+02 -9.7472113553e-05 2.5133887152e-03 7.1178295806e-03 2.7945269859e-04 -3.1588149065e-06 5.9924773972e-02 -9.1117795104e-04 -2.9678507831e-02
2.1000000000e-02 8.9773976502e+02 3.1525941508e-05 1.8551145154e-03 1.0086082556e-03 1.2437769438e-04 -1.8219094765e-04 7.2960999715e-02 -2.5738855009e-04 2.0805629627e-03
2.2000000000e-02 9.6699897202e+02 -1.7304640975e-04 1.5497201940e-02 3.5234661217e-02 5.1673812466e-04 -1.5263150395e-04 -5.2323507814e-01 1.6244211112e-03 -2.1909471505e-01
2.3000000000e-02 9.7334288789e+02 5.2838874222e-04 2.0822010539e-03 4.4183130788e-03 1.2877964523e-04 -3.2291650343e-05 7.1038413183e-02 -7.5789897465e-04 9.3385171930e-04
2.4000000000e-02 1.0066973385e+03 -1.7947839512e-05 5.5119742897e-03 -2.0332351657e-03 3.3005054355e-04 1.0537949656e-04 -8.1498617200e-02 3.7377709013e-04 -3.6201557418e-02
2.5000000000e-02 1.0266192398e+03 -4.8862051138e-05 2.7729995739e-03 2.2182009464e-03 5.6233631645e-04 9.4609861008e-05 7.2034355883e-02 -1.8126797750e-04 -1.5881939534e-03
2.6000000000e-02 1.0612151861e+03 5.7703888905e-05 3.2826406990e-03 4.9403921811e-03 5.7929587735e-05 3.5774968887e-04 7.1923454083e-02 -9.5709691681e-04 -5.9900424491e-04
2.7000000000e-02 1.0880701963e+03 2.8884785436e-04 2.4657305476e-03 -3.2430745444e-03 4.5388888212e-04 5.3068265716e-04 6.6751571700e-02 2.7333525058e-04 -7.0609384784e-04
2.8000000000e-02 1.1184538295e+03 4.9150563164e-04 3.0157541053e-03 8.7561802982e-04 3.8105406134e-04 -7.6848837940e-05 8.2014227420e-02 -1.0815758616e-04 -1.2763754408e-03
2.9000000000e-02 1.1400267807e+03 3.5660849123e-04 2.2584253880e-03 -1.5362083190e-03 3.4021080976e-04 -1.2827265404e-05 7.5202081731e-02 -1.4143484464e-04 -3.2988987346e-04
2.9740359501e-02 1.1558112394e+03 5.3549890792e-04 1.6763774232e-03 -2.3220608995e-03 4.4140618950e-04 4.1439404353e-04 7.4219131023e-02 4.4517493172e-04 -6.1389956945e-04
3.0000000000e-02 1.1597747787e+03 1.2182254090e-03 6.5428405807e-03 7.8258007771e-02 2.2993108068e-04 2.0958053445e-03 1.7755928776e-01 -7.1140948726e-03 1.6834947964e-01
3.1000000000e-02 1.1893162371e+03 -4.4470453583e-05 1.5897676907e-03 -4.1580126465e-03 4.8348184109e-04 6.6165186147e-04 9.7448307130e-02 -1.8191479541e-05 1.9495346205e-03
3.2000000000e-02 1.2124308506e+03 1.3616742014e-04 2.0028780289e-03 -4.9295735253e-03 3.0081759580e-04 5.8659066778e-04 7.0580215083e-02 3.7308667634e-04 -6.5846770331e-04
3.3000000000e-02 1.2367062274e+03 2.1404673304e-04 1.8426517526e-03 -4.5172914613e-03 3.2725872050e-04 2.1206872561e-04 6.8643475678e-02 -3.2439112905e-04 3.4984452114e-03
3.4000000000e-02 1.2606050638e+03 5.0279814299e-05 2.4812613754e-03 -6.4117979000e-03 3.0544517631e-05 5.5358635242e-04 6.4574214147e-02 -3.5406163135e-04 -3.3141739024e-03
3.5000000000e-02 1.2829816853e+03 -3.5026452558e-04 2.8727633124e-03 -1.7283165910e-02 -1.1298018350e-04 5.7331425831e-04 6.9134397439e-02 7.4161140815e-04 -8.8051365789e-04
3.6000000000e-02 1.3078570671e+03 -1.1070337024e-03 3.7324640936e-03 -2.8297651722e-02 -1.0905306263e-03 5.1863480762e-04 5.3541607925e-02 9.9045554224e-04 -5.0977081556e-02
3.7000000000e-02 1.3321387922e+03 -3.3080878184e-03 6.8376796504e-03 -3.4045683142e-02 -2.4809424548e-03 1.3557236166e-04 5.9035172634e-02 -7.7263794938e-04 -4.9663925128e-02
3.8000000000e-02 1.3605479925e+03 1.5067644924e-02 3.1515719619e-02 4.1571621054e-01 1.2212086576e-03 2.5244209399e-03 -4.5343899168e-01 -7.6697750472e-02 6.3143246681e+00
3.9000000000e-02 1.3686861499e+03 -1.5086719241e-02 8.3301337788e-03 -1.9270415993e-01 -1.2943337450e-02 -4.0543818518e-03 1.5306329670e-02 -2.1678786289e-04 -2.0884232627e-01
4.0000000000e-02 1.3866116034e+03 -3.1168198660e-02 1.3610361602e-02 -4.2555611940e-01 -2.7574378996e-02 -1.2935270550e-02 -4.6933370734e-02 4.1378939399e-04 -4.3432112226e-01
4.1000000000e-02 1.4028827263e+03 -6.6511972597e-02 2.7414836276e-02 -9.4513239742e-01 -6.0440807822e-02 -3.0597181537e-02 -1.3829778636e-01 6.8521521471e-03 -1.1153736323e+00
4.2000000000e-02 1.4093138737e+03 -1.6779461019e-01 7.5496343688e-02 1.1610501242e-01 -8.2232424582e-02 -5.8885511276e-02 -1.6046887765e+00 1.2274016951e-02 3.4525295374e-01
4.3000000000e-02 1.4158721487e+03 -1.8975349952e-01 1.9149147581e-01 -3.0833638977e+00 -1.6857171482e-01 -4.6078429629e-02 -6.1445327469e-01 1.1790005721e-01 -3.3294142369e+00
4.4000000000e-02 1.4190460285e+03 -2.3428047272e-01 3.3820170553e-01 -3.8874817819e+00 -1.5483438591e-01 -1.5138566202e-02 -1.0570277111e+00 1.2887084703e-01 -3.7956361921e+00
4.5000000000e-02 1.4151226087e+03 -2.5786698246e-01 6.5357552976e-01 -5.0776134012e+00 -1.3470653880e-01 5.0409136933e-02 -1.4188908533e+00 9.5298644594e-02 -3.3470220464e+00
4.6000000000e-02 1.4121740620e+03 -1.2049274566e-01 2.4619381322e-01 -1.0047943975e+00 7.4165452483e-03 -1.0599154932e-01 -9.4140500990e-01 -1.6385942991e-01 5.1119721044e-01
4.7000000000e-02 1.4137548949e+03 -3.9132326949e-02 8.1935132710e-02 6.8522275542e-01 4.5048883423e-02 -1.8435605328e-01 -1.9526395410e-01 -1.6630065725e-01 2.0070773536e+00
4.7304123208e-02 1.4149409704e+03 -3.5764006250e-02 -2.1107494615e-02 8.2255811036e-01 -1.8849415188e-02 -2.3984515274e-01 -6.1962342962e-02 -9.8528412975e-02 1.0815253929e+00
4.8000000000e-02 1.4274176342e+03 7.0786215431e-02 -3.9462761062e-01 -5.5204972085e-01 -3.5708527732e-01 -2.4014476961e-01 -6.7060564742e-01 3.0745961464e-01 -5.0162910859e+00
4.9000000000e-02 1.4319175024e+03 6.4707300868e-02 -3.5623360643e-01 2.6492635555e+00 -1.0716740860e-01 -1.8788140117e-01 -2.4601996981e-02 1.2603230932e-01 -2.2614788881e+00
5.0000000000e-02 1.4376127905e+03 2.4995897607e-02 -4.4715662192e-01 -1.4761275473e-01 -3.2488052514e-01 6.4635533422e-02 -4.9144787204e-01 3.2682775861e-01 -8.0478866221e+00
5.1000000000e-02 1.4579723323e+03 1.1809258624e-01 -4.1365059543e-01 1.0739831460e+00 -4.3766143401e-01 1.9628289776e-01 1.4360512852e-01 3.3834709664e-01 -9.3025984082e+00
5.2000000000e-02 1.4701231038e+03 7.1789285168e-02 -6.5232742943e-01 5.9405575559e-02 -3.0237541574e-01 2.3478955959e-01 -1.9623900520e+00 2.3696351272e-01 -7.4689315400e+00
5.3000000000e-02 1.4864162882e+03 3.2871543946e-02 -1.3915519605e-01 -1.4617261202e+00 -4.2556430598e-02 1.7963652798e-01 -3.1032870156e+00 4.7572248312e-02 -4.3098332758e+00
5.4000000000e-02 1.5053663768e+03 1.7902689221e-02 -1.5088530770e-01 -1.0821416756e+00 1.6804210436e-01 -4.3324932674e-01 -1.3871233769e+00 -4.0669702516e-02 1.6073221687e+00
5.5000000000e-02 1.5155574979e+03 1.4506550169e-01 9.1566002317e-02 -2.0604414161e+00 4.2749753949e-01 -2.8339875407e-01 -3.3069294203e+00 -3.6773348450e-01 4.7171925783e+00
5.6000000000e-02 1.5281063328e+03 -9.1095056358e-02 1.1259313342e+00 -1.9930448101e+00 5.3381256934e-01 -5.4631775561e-01 -3.5062081310e-01 -3.7433152435e-01 6.1904958691e+00
5.7000000000e-02 1.5429300017e+03 -1.0108725282e-01 7.5268855392e-02 -2.1175404879e+00 6.1602676651e-01 -6.4337720468e-01 2.1298571510e+00 -3.6397061418e-01 1.0084757186e+01
5.8000000000e-02 1.5479791237e+03 -1.3083581028e-01 -8.2964453696e-01 -1.0807125197e-01 4.6519893748e-01 -3.1351505461e-01 -1.8465636712e-02 -3.4279481157e-01 6.0582191150e+00
5.9000000000e-02 1.5652396247e+03 -3.9808073421e-01 1.4519709370e+00 -6.5863428160e-01 1.9521090135e-01 -2.3853017293e-01 3.6771558166e+00 1.3390736174e-01 1.9612814402e+00
6.0000000000e-02 1.5767501685e+03 -5.7195654748e-01 1.5382611183e+00 1.2854012961e+00 -2.4314557577e-01 6.8697498973e-02 2.4684929611e+00 2.8310050048e-01 -4.5263594603e+00
6.1000000000e-02 1.5849072099e+03 -6.2502939044e-01 -1.1624432209e+00 1.3593558974e+00 -2.3155940641e-01 2.7977939460e-01 9.9329860190e-02 6.3431471030e-01 -4.7934829672e+00
6.2000000000e-02 1.5911053255e+03 -4.5354716449e-01 -1.4684108805e+00 9.0452876678e-01 -1.8332347526e-01 2.0547294585e-01 1.3651114129e+00 6.2401750959e-01 -6.0764782246e+00
6.3000000000e-02 1.5990390288e+03 -7.9549935254e-01 1.7989204225e-01 -4.6807951549e-01 -1.4467459152e-01 6.6714453362e-01 -3.2583842836e+00 1.7978175094e-01 -5.3355501302e+00
6.4000000000e-02 1.6042598557e+03 -8.2066885531e-01 3.3910375319e-01 3.9254869568e-01 4.3189825190e-02 4.2885781984e-01 -3.3578099570e+00 4.2728421391e-01 -5.2412617113e+00
6.5000000000e-02 1.6121025432e+03 -9.0915285602e-01 -1.0232673455e+00 1.2984986783e+00 3.8720643613e-01 8.7555444508e-02 -3.6032903068e+00 4.9153417756e-01 -2.4788756358e+00
6.5074163134e-02 1.6125785159e+03 -8.7280786709e-01 -1.5894356223e+00 1.5833691591e+00 3.4634812447e-01 1.5991827331e-02 -3.6284947690e+00 3.7969657862e-01 -2.5409270669e+00
6.6000000000e-02 1.6163793918e+03 -7.7283452867e-01 -1.7365829267e+00 1.2134320739e+00 5.6701582132e-01 -3.0029962817e-01 -1.4377077281e+00 -2.7393430705e-02 1.0469353526e+00
6.7000000000e-02 1.6222764006e+03 -1.0440830472e+00 -1.2157664483e+00 3.5768086764e-01 6.5067284146e-01 -7.1781351670e-01 -2.1531923659e+00 -2.1724038944e-01 2.6583094110e-01
6.8000000000e-02 1.6223493604e+03 -3.3637110143e-01 2.1444276782e-01 -4.9456041514e-01 7.7248146444e-01 -7.1943780941e-01 -2.5896498476e+00 -2.5664809650e-01 2.5521906723e+00
6.9000000000e-02 1.6270030633e+03 -1.4294009125e-01 1.6458621355e+00 -2.5828960042e+00 4.0374318495e-01 -4.9361792492e-01 -9.6022371874e-01 -2.7013352383e-02 3.5537733703e+00
7.0000000000e-02 1.6319278140e+03 3.1180596641e-01 8.7774219246e-01 -1.7342377102e+00 4.1901407221e-01 -5.4547360777e-01 3.8088932019e-01 -7.2562509674e-01 5.1354032534e+00
7.1000000000e-02 1.6338130902e+03 -1.6794932345e-01 -8.4046013562e-01 -1.7416259142e+00 -6.4269847669e-02 -4.4975162969e-01 2.2993433323e+00 -9.7134367581e-02 2.8909070890e+00
7.2000000000e-02 1.6361502892e+03 -4.7883432358e-01 -2.7185615800e-02 -9.3874624190e-01 -4.6871273825e-02 -4.5146878286e-01 2.7806249900e+00 -2.2155906552e-01 1.4801198070e+00
7.3000000000e-02 1.6407273107e+03 -2.2178760926e-01 1.1660364965e+00 -2.3037328726e+00 1.1212221134e-01 9.8429060991e-02 1.8313306693e-01 1.8541981280e-01 4.4058895235e-01
7.4000000000e-02 1.6413178224e+03 -2.8047024980e-01 1.4227429000e+00 -4.1607954783e+00 5.5187300091e-01 -3.9234363512e-01 2.0332539948e+00 3.6021308905e-01 5.0100590999e-02
7.5000000000e-02 1.6449053014e+03 -6.7964366567e-01 1.4493648986e+00 -2.5832201441e+00 7.7496694977e-02 3.1967066162e-02 2.3290099143e+00 6.7905353076e-01 -3.6007024704e+00
7.6000000000e-02 1.6487931587e+03 -8.2941751255e-01 1.4381416891e+00 -1.0168822148e+00 2.9883870533e-01 1.6645521220e-02 -4.2938505225e-01 3.4519547018e-01 -5.1403485642e+00
7.7000000000e-02 1.6496671558e+03 -7.0695674592e-01 9.2649886183e-01 -2.2340238289e+00 3.3627530990e-01 1.7571260659e-01 -1.7552932242e-01 9.4977053173e-01 -5.7465968075e+00
7.8000000000e-02 1.6546968801e+03 -9.8108719845e-01 2.8160724142e-01 -1.5516347700e+00 6.4987445841e-01 1.9690051291e-01 -1.6414512738e+00 5.7808292960e-01 -6.1477224595e+00
7.9000000000e-02 1.6565613184e+03 -9.2142333225e-01 7.3919764232e-01 4.1181757840e-01 -1.2296754136e-01 -4.7873294586e-03 8.5868245414e-02 7.0691316118e-01 -7.9112681190e+00
8.0000000000e-02 1.6584935381e+03 -7.3999869052e-01 1.3850450694e+00 -1.2405897602e+00 -7.5199675376e-02 1.2147458513e-01 -1.6363963226e+00 7.3676804144e-01 -7.8321478242e+00
8.1000000000e-02 1.6579712138e+03 -1.1536542016e+00 1.7756053287e+00 -9.6227335315e-01 6.9579663616e-02 -3.9493450186e-01 -3.1871415084e+00 2.2160494959e-01 -5.1292417504e+00
8.2000000000e-02 1.6586821151e+03 -1.0333569339e+00 5.4484756577e-01 3.5239578264e-02 4.1666402045e-02 -9.1839722311e-01 -1.7227193978e+00 4.8785663537e-01 -2.5635962055e+00
8.2962739467e-02 1.6613076346e+03 -6.1379271932e-01 2.8851655953e-01 -1.0840040391e+00 -2.9414698229e-01 -9.1114097743e-01 -1.1585325531e+00 3.6266080464e-01 -1.3319234955e+00
8.3000000000e-02 1.6613820973e+03 -6.2453900125e-01 2.3582377991e-01 -1.2424717026e+00 -2.5055167555e-01 -8.9710365739e-01 -1.1933362403e+00 3.3589294968e-01 -1.2771608470e+00
8.4000000000e-02 1.6596473088e+03 2.8808172820e-01 -2.1794048923e-01 -2.0718735560e+00 -3.6809480415e-02 -9.2936117402e-01 9.7977644208e-01 -1.0971962921e-01 -2.2203170479e+00
8.5000000000e-02 1.6579885684e+03 7.3116820733e-02 -7.1896078126e-01 -2.0254810053e+00 -6.7975693622e-02 -9.8509938091e-01 1.8796826567e+00 -1.2844973554e-01 4.3762783516e-01
8.6000000000e-02 1.6587330917e+03 3.8266008974e-01 3.2404054348e-01 -2.3014958258e+00 2.7825274321e-01 -8.7876737214e-01 3.4440323120e-01 6.3524523262e-03 1.4592721725e+00
8.7000000000e-02 1.6568028937e+03 8.8560859103e-01 5.4979758915e-02 -3.2618355026e+00 4.9526281716e-01 -5.4540642789e-01 2.0017791454e+00 -6.0866812223e-02 -2.2018187988e+00
8.8000000000e-02 1.6560345756e+03 9.1986241900e-01 -1.7284369846e-01 -4.5772385173e+00 4.9663357917e-01 8.0278307867e-03 1.8321420719e+00 5.0539235333e-01 -4.9182960579e+00
8.9000000000e-02 1.6549473992e+03 8.8056655384e-02 1.5492953671e-01 -2.9695940006e+00 1.0574403240e+00 -3.2410521998e-01 3.4736340676e-01 5.8869236674e-01 -4.8776001675e+00
9.0000000000e-02 1.6506597981e+03 -2.6604134716e-01 1.9517972750e-01 -2.5443341834e+00 1.3424185459e+00 -4.2240023547e-01 -9.5971313267e-02 9.4989792291e-01 -4.9383489050e+00
9.1000000000e-02 1.6504597088e+03 -1.4926407616e-01 5.5551687124e-01 -3.3497584533e+00 1.2072839769e+00 -9.1579290894e-02 -1.6912744646e+00 8.1113733524e-01 -6.5406378142e+00
9.2000000000e-02 1.6482850773e+03 -7.1300629521e-01 1.5892360564e+00 -2.9284967668e+00 1.2774594634e+00 -1.9524965955e-01 -2.2577400978e+00 1.3744722681e+00 -1.0996689594e+01
9.3000000000e-02 1.6447700426e+03 -6.4390657362e-01 3.2777883950e+00 -3.7940311523e+00 1.2564319148e+00 -4.4801670630e-01 -2.6244693969e+00 1.0751724076e+00 -1.1329457285e+01
9.4000000000e-02 1.6412623283e+03 -5.5662314044e-01 3.0781031966e+00 -3.6587599713e+00 1.6064866724e+00 -9.6906111585e-01 -3.4400210656e+00 1.8873259710e+00 -9.5747093856e+00
9.5000000000e-02 1.6371109170e+03 -1.3730209303e+00 2.3897422264e+00 -2.5454996665e+00 1.4509884346e+00 -1.4165863556e+00 -3.6759496528e+00 2.0666565295e+00 -9.2790036051e+00
9.6000000000e-02 1.6334522810e+03 -1.7407300597e+00 2.3757528154e+00 -3.2181748936e+00 1.4889642517e+00 -1.4556165977e+00 -5.6859795429e+00 1.7722891191e+00 -9.2570460836e+00
9.7000000000e-02 1.6303908786e+03 -1.0871139303e+00 2.6378092381e+00 -4.0505578513e+00 2.4365699465e+00 -1.3672000710e+00 -8.2408728126e+00 1.1238982877e+00 -8.2145623987e+00
9.8000000000e-02 1.6276697446e+03 -6.3982564833e-01 3.2147694927e+00 -4.1069624710e+00 3.2986669761e+00 -9.0146203352e-01 -9.8323181542e+00 7.2154626638e-01 -6.0784847011e+00
9.9000000000e-02 1.6266290810e+03 -3.2011968687e-01 3.0002325256e+00 -4.9624525984e+00 2.9777427808e+00 -8.6713288456e-01 -1.1891146290e+01 1.2030635143e-01 -3.7297479415e+00
1.0000000000e-01 1.6270551995e+03 -8.4162886513e-01 2.5889148387e+00 -5.0086384035e+00 2.8496741239e+00 8.3094120490e-03 -1.2523083349e+01 4.0437743894e-01 -2.5850065687e+00
1.0088914075e-01 1.6267041111e+03 -1.0726997219e+00 3.1679787659e+00 -4.2572927328e+00 2.3774192611e+00 -1.2484706142e-01 -1.3206372841e+01 4.3958334468e-01 -3.1364426500e+00
1.0100000000e-01 1.6267340263e+03 -1.0380150735e+00 3.1987105398e+00 -4.3683650863e+00 2.2944359128e+00 -1.5554509874e-01 -1.3280413000e+01 3.6306255392e-01 -3.1005883841e+00
1.0200000000e-01 1.6265569063e+03 -1.2284129970e+00 4.2345075638e+00 -4.4465428455e+00 2.0319214300e+00 -1.1225419804e-01 -1.2895635509e+01 6.1524990658e-01 -7.8895307753e-01
1.0300000000e-01 1.6259821463e+03 -6.1592495283e-01 4.3173401391e+00 -4.4225892423e+00 1.4457222499e+00 -6.6491588202e-01 -1.2060278274e+01 -1.1619515730e-02 7.9813028376e-01
1.0400000000e-01 1.6243331020e+03 2.3818678577e-01 3.9779096715e+00 -4.3775646135e+00 1.1889764323e+00 -7.8653258641e-01 -1.1022174240e+01 -8.3904423909e-01 2.2627196232e+00
1.0500000000e-01 1.6225932731e+03 -1.3691432114e-01 3.6424759852e+00 -5.5520742727e+00 1.6012366654e+00 -1.1767337575e+00 -1.0003581962e+01 -8.5801346480e-01 3.4717472799e+00
1.0600000000e-01 1.6198963579e+03 -1.0850153618e+00 4.2012379548e+00 -5.0727065178e+00 1.2281133832e+00 -7.6657299820e-01 -8.9809076639e+00 -1.3126673270e+00 4.3415775671e+00
1.0700000000e-01 1.6174115489e+03 -3.0958051492e+00 4.5579083168e+00 -4.6245433085e+00 1.1872498140e+00 -4.1136740589e-01 -7.5079993981e+00 -1.9389984601e+00 4.3207135484e+00
1.0800000000e-01 1.6163960249e+03 -3.6814588188e+00 4.5404992300e+00 -4.7892526637e+00 9.8886596640e-01 1.2335145995e+00 -4.6412273123e+00 -3.3324181345e+00 2.4447349963e+00
1.0900000000e-01 1.6156853528e+03 -3.4548300065e+00 3.7334213130e+00 -5.6136645003e+00 6.9737971193e-01 2.5880281212e+00 -2.1678713228e+00 -4.0063437226e+00 1.7306477726e+00
1.1000000000e-01 1.6156045998e+03 -1.6921094804e+00 3.5422462027e+00 -6.2657190290e+00 9.1426659952e-01 2.5836987739e+00 -3.3557578340e-01 -4.1634698312e+00 1.1230294431e+00
1.1100000000e-01 1.6148892838e+03 -6.5673401197e-01 3.8368392290e+00 -6.6592412819e+00 1.6355553125e+00 2.7535076993e+00 1.6528029104e+00 -3.3905671114e+00 3.1366604719e-01
1.1200000000e-01 1.6128465752e+03 -2.2285249404e-01 3.1218848448e+00 -5.4760898926e+00 3.6779959882e+00 3.6935193939e+00 3.5590704863e+00 -3.8659419820e+00 -5.0264710930e-01
1.1300000000e-01 1.6099346714e+03 1.1538804562e-01 3.8423904776e+00 -3.7644917185e+00 4.5760367487e+00 4.9139531899e+00 3.9448007042e+00 -3.1846098302e+00 -6.8105000898e-01
1.1400000000e-01 1.6067351591e+03 -1.5499621679e-01 4.6019811418e+00 -3.8618484082e+00 5.4263535057e+00 4.9808408580e+00 3.3589549513e+00 -2.4118694151e+00 -2.1579380849e+00
1.1500000000e-01 1.6043117282e+03 8.9824462279e-02 5.9609870437e+00 -5.4955907097e+00 5.3267439483e+00 4.7845141396e+00 3.3269149534e+00 -1.0220990542e+00 -3.9000864102e+00
1.1600000000e-01 1.6024189356e+03 -2.8005116327e-01 6.4923189741e+00 -6.6154506247e+00 5.3552911038e+00 2.9602222090e+00 3.2253816883e+00 -9.1547451316e-01 -2.9183384506e+00
1.1700000000e-01 1.5997397395e+03 -1.2024581461e+00 5.6813867435e+00 -6.0068857449e+00 3.7049833429e+00 2.1144964078e+00 3.3290286799e+00 -2.2727992515e+00 -9.8285582017e-01
1.1800000000e-01 1.5961306151e+03 -2.5546235938e+00 6.3980668621e+00 -4.2035889476e+00 2.8993018901e+00 4.8012044010e-01 2.7078219071e+00 -2.9225708870e+00 1.3064336498e-01
