#1:time pb [s], 2:l0m0 3. l1m-1 4. l1m0 5. l1m1 6. l2m-2 7. l2m-1 8. l2m0 9. l2m1 10. l2m2
1.0000000000e-02 3.9625648015e+02 -5.2124473001e-07 6.0155113601e-07 -6.1281831233e-05 1.4562890967e-07 -6.8820120346e-08 3.0720382923e-02 2.5196875624e-08 1.4070347004e-05
1.1000000000e-02 4.2571400216e+02 -3.0821648380e-10 2.2775386412e-06 -4.4277634058e-05 7.0556288621e-07 4.1519918684e-07 3.3003297025e-02 -1.4588118612e-06 1.0514368520e-05
1.2000000000e-02 5.1497204980e+02 -1.3270367148e-05 1.4647998483e-05 2.1503265198e-05 8.0860156668e-05 1.6497827319e-04 3.9921538763e-02 -9.4382236097e-06 7.7502452995e-05
1.3000000000e-02 6.0879727600e+02 -2.4515286096e-05 4.0402922224e-05 3.2903248801e-05 -7.5459711013e-05 -8.4885239410e-05 4.7437095881e-02 7.6728660138e-05 -2.0469418308e-04
1.4000000000e-02 6.9198945192e+02 3.8426985407e-05 3.1796666616e-04 1.1483752380e-04 -1.1798958822e-04 -2.6495849816e-05 5.3742379983e-02 -4.6943663262e-05 7.8700833993e-05
1.5000000000e-02 7.7626185831e+02 1.3961470589e-04 8.7744555523e-04 3.0437403020e-05 -2.7718933457e-07 -9.5593199906e-05 6.0852093557e-02 -1.1131266785e-04 -5.0574955951e-03
1.6000000000e-02 8.6243921687e+02 -5.1447904756e-05 -2.2720596814e-04 2.5534502040e-03 6.7126397775e-06 5.3887163177e-05 6.8024763367e-02 1.2776653982e-04 -4.3289082904e-03
1.7000000000e-02 9.2427903795e+02 2.3186088533e-04 7.3091081242e-04 9.1821296655e-04 2.1190506776e-04 -2.7909734901e-04 7.8230129239e-02 -3.7305540212e-06 5.8443079046e-03
1.8000000000e-02 9.8410309373e+02 2.3163440251e-05 1.0038614712e-03 7.9070291530e-04 -2.0584243785e-05 -1.0901313200e-04 7.5967473234e-02 -2.2742130802e-04 6.6567674197e-04
1.9000000000e-02 1.0539180791e+03 -7.6316075873e-05 1.4142074037e-03 7.0444653738e-04 1.5996102346e-04 -1.1398844433e-04 8.1435472858e-02 -2.9660438693e-04 -6.4332730896e-04
1.9437004706e-02 1.1049730637e+03 2.5501441296e-04 -1.0046762692e-03 -1.2322793740e-02 -6.7349609411e-05 6.1485355558e-05 6.4742640459e-02 1.1787864913e-03 -3.6585375130e-02
2.0000000000e-02 1.1179622704e+03 -2.3749669495e-04 2.9054726965e-03 6.8592719803e-03 1.3494865694e-04 3.2028553934e-04 7.8891993285e-02 -1.1988253803e-03 -1.4415883171e-02
2.1000000000e-02 1.2096192495e+03 -4.1339974097e-05 1.2677248333e-03 3.4188387202e-03 1.0645618632e-04 6.2907191509e-05 9.0931520852e-02 -4.8277930601e-04 -1.3552270009e-02
2.2000000000e-02 1.2794328486e+03 1.4229297507e-04 2.5770930108e-04 -8.1314850148e-05 6.1301822462e-05 3.7063857431e-05 1.2829010187e-01 -1.2930122155e-04 1.1628729182e-03
2.3000000000e-02 1.3478785302e+03 7.0917668013e-05 1.3408792005e-03 5.5902749262e-03 1.8332413061e-04 -2.8190423331e-05 1.0172536654e-01 -6.0367995987e-04 1.4694202136e-03
2.4000000000e-02 1.3756830334e+03 3.5302975236e-05 -6.6135227796e-03 -1.8446685767e-02 4.6852043961e-04 -9.1117456505e-05 5.4170377296e-01 3.4470956292e-03 4.5816396806e-02
2.5000000000e-02 1.4225069785e+03 1.1876480519e-04 2.0069740457e-03 3.3527179005e-03 3.2557470915e-04 4.9829818105e-05 1.1232624780e-01 -3.3271639561e-04 7.2747947932e-03
2.6000000000e-02 1.4655980365e+03 1.2146683635e-03 1.8595650101e-03 2.0680620849e-03 1.2682999004e-04 3.8996800683e-04 1.0349659568e-01 -2.2160124659e-05 -3.6924276136e-01
2.7000000000e-02 1.4978693432e+03 1.1271022869e-04 2.7414939362e-03 1.1833758787e-04 3.2189600624e-04 4.6085881011e-05 1.1296246923e-01 2.3137276112e-04 6.0292035744e-04
2.8000000000e-02 1.5550396059e+03 1.0235625963e-05 2.1751264855e-03 -2.7086489367e-03 3.0591472517e-04 -5.7912830676e-05 1.1481516016e-01 2.7518559276e-04 -1.7935922124e-03
2.9000000000e-02 1.6113746307e+03 -2.2260092037e-04 2.3200524852e-03 -3.5988040852e-03 2.0939424351e-04 -2.9225915605e-05 1.2103527475e-01 4.8114770635e-04 -2.2817220613e-03
3.0000000000e-02 1.6683183359e+03 -1.6599391313e-04 3.7335320540e-03 -1.0235945833e-02 3.1867279374e-04 4.0941546033e-04 1.2478096667e-01 1.7698897626e-03 -4.6586418497e-03
3.1000000000e-02 1.7227903027e+03 -1.1318174841e-03 5.6351537110e-03 -1.1854240417e-02 -2.3798530920e-04 6.9428124974e-04 1.1566310216e-01 2.6803165143e-03 -3.3529607550e-02
3.2000000000e-02 1.7658643255e+03 -3.1835171526e-03 8.0174494764e-03 -1.2631179444e-03 -1.0746261343e-04 2.3308013884e-03 1.2321067916e-01 4.2785067198e-03 -6.0434084412e-02
3.3000000000e-02 1.7997102755e+03 -7.9216319635e-03 1.8156039280e-02 1.9913612440e-02 -1.5959355798e-03 1.0857673215e-02 1.7616927277e-01 1.2872698742e-02 -7.8030174920e-02
3.4000000000e-02 1.8290403824e+03 2.7391296542e-02 -4.2396363597e-03 3.1299782956e-02 -2.3294374271e-02 8.8112905345e-02 1.9887711525e-01 6.4236153022e-02 -4.4422793025e-01
3.5000000000e-02 1.8592393408e+03 3.9876559753e-01 -5.8799648309e-01 -1.0632827541e+00 -1.5083892102e-01 4.9932673913e-01 5.3498485606e-01 3.4448136315e-01 -2.7092456154e+00
3.6000000000e-02 1.8755901972e+03 6.1142376644e-01 -1.6323898877e+00 -3.9166818259e+00 -2.2383152849e-01 8.5499403774e-01 2.1314641044e+00 8.8458657851e-01 -6.6632335391e+00
3.7000000000e-02 1.8939638161e+03 4.6516790083e+00 -1.3448870232e+01 -1.7791885338e+01 -5.7388430286e-01 6.7722956506e+00 2.8136272125e+00 5.5740075115e+00 -2.6042641826e+01
3.8000000000e-02 1.8542103504e+03 2.8649098115e+00 -7.0171841231e+00 -1.1921812215e+01 -1.5043791190e-02 -3.0460364654e-01 2.7986923501e+00 2.4036397030e+00 -6.5162065498e+00
3.9000000000e-02 1.8530533497e+03 1.1940723026e+00 -6.2680059127e+00 -7.7083706050e+00 2.8918327895e-01 -1.6060423488e+00 4.0498545701e-01 3.0589769606e-01 7.9494626871e+00
4.0000000000e-02 1.8733067526e+03 9.6987060375e-02 -1.4719414286e+00 -1.4392107689e+00 -1.7828556677e-01 8.3442211663e-02 -5.0786110838e+00 -1.8318826807e+00 7.5778978714e+00
4.1000000000e-02 1.8888476161e+03 -1.5730653702e+00 2.4065171707e+00 2.7295123139e+00 4.0649941139e-01 -1.8062591254e+00 -1.4711654210e+00 -2.5494540785e+00 1.2843796622e+01
4.2000000000e-02 1.9047051308e+03 -3.0834800730e+00 3.4768875497e+00 4.9543500318e+00 1.9100130088e-01 -9.4314013203e-01 2.6538828994e+00 -6.6699079499e-01 4.9550202841e+00
4.3000000000e-02 1.9324487727e+03 -2.4908666751e+00 3.4183597383e+00 6.5381827657e+00 9.5191307227e-01 1.2809413914e+00 3.4693688614e+00 2.2547525634e-01 -1.0169967806e+01
4.4000000000e-02 1.9668065072e+03 -2.8376350372e+00 3.1934427253e+00 2.7548291708e+00 -3.8776850104e-01 1.5870792399e+00 4.6960259722e+00 2.5297155166e+00 -2.3211916198e+01
4.5000000000e-02 2.0061490525e+03 -1.6387751394e+00 3.1737469323e+00 -1.2634214200e+00 -8.8074248425e-01 2.3430033096e+00 6.9657405444e+00 5.9690030574e+00 -3.4270225052e+01
4.6000000000e-02 2.0355663955e+03 -5.4958504944e-01 -3.1120343751e+00 -6.1674047320e+00 -1.0388311928e+00 1.5885254070e+00 5.0217253522e+00 5.5358075640e+00 -2.9040377838e+01
4.7000000000e-02 2.0602137846e+03 4.7348195527e-01 -4.4207847281e+00 -7.5103143831e+00 -4.2398960475e-01 -4.4201056717e-01 5.6464901274e+00 3.5986551976e+00 -1.2585780602e+01
4.8000000000e-02 2.0835651698e+03 -5.0686918097e-01 -6.0049371005e+00 -8.9753270434e+00 -1.9912108304e+00 -3.1696476694e+00 3.0399075670e+00 3.1063591236e+00 5.5245385359e+00
4.9000000000e-02 2.1014792519e+03 1.7328729501e+00 -8.8730198776e+00 -1.1286774551e+01 7.2247179493e-01 -3.2873877396e+00 7.0739932382e-03 -1.8119225068e+00 2.6900538373e+01
5.0000000000e-02 2.1225069421e+03 2.1705179125e+00 -9.5978723208e+00 -9.0638438239e+00 1.9479452081e+00 -4.6538970905e+00 2.3046938159e-02 -5.6408875235e+00 4.1084756962e+01
5.1000000000e-02 2.1432273524e+03 1.4255255869e+00 -6.6539294474e+00 -5.2138771025e+00 1.4009769279e+00 -5.2579335435e+00 7.7487025221e-01 -5.6241041557e+00 4.0509417266e+01
5.2000000000e-02 2.1645335342e+03 -3.3471417775e-02 -3.0321905657e+00 1.5076835568e+00 1.5100505785e+00 -2.9120978321e+00 6.4472766213e-02 -4.3756391234e+00 2.4800341597e+01
5.3000000000e-02 2.1863825489e+03 -1.0300809753e+00 -5.0587509161e+00 2.5296219760e+00 1.2240485635e+00 -3.9850290166e-01 1.5832286059e+00 1.0432356490e-02 3.7015957833e+00
5.4000000000e-02 2.2031036520e+03 -6.0868210111e-01 1.1921778860e+00 4.5386473293e+00 2.6859027909e-01 1.1257558122e+00 2.7716826190e+00 1.9642063032e+00 -1.5990150447e+01
5.5000000000e-02 2.2268408045e+03 -2.6712017559e+00 5.4427027229e+00 6.4125627164e+00 -3.3158258741e-01 2.4068775179e+00 1.5710187815e+00 2.6149404887e+00 -3.2559755262e+01
5.6000000000e-02 2.2492168990e+03 -3.2183920532e+00 2.8366471373e+00 6.3627225374e+00 -1.5641812128e+00 3.4205131794e+00 2.5808341775e+00 5.2980507971e+00 -3.7468825874e+01
5.7000000000e-02 2.2684658267e+03 -2.2209428153e+00 1.6217389817e+00 5.3605427137e+00 -1.0969533250e+00 3.6099387199e+00 1.8368337620e+00 4.9474908677e+00 -3.3297490781e+01
5.8000000000e-02 2.2811514654e+03 -2.8546490862e+00 1.8500457561e+00 4.3654389436e+00 -1.0266545027e+00 1.7806500646e+00 4.8202114836e+00 2.9039289423e+00 -1.8230805377e+01
5.9000000000e-02 2.2891644239e+03 -6.8643574518e+00 4.1385994431e+00 4.4561802965e+00 -9.7885375065e-01 -3.7084039122e-01 4.8419087326e+00 2.8295498134e+00 -4.1184858559e+00
5.9157524150e-02 2.2898237562e+03 -2.6519489214e+00 2.3402392893e+00 3.6201379573e+00 -9.3477063903e-01 -2.7617532030e+00 6.7558623686e+00 3.0207004607e+00 -8.3741959374e-01
6.0000000000e-02 2.2996706746e+03 -4.1531723516e+00 2.5841562382e+00 3.1375484333e+00 5.4001306898e-02 -9.1351986306e-01 6.2597864403e+00 2.7614090272e-02 1.2195120603e+01
6.1000000000e-02 2.3093360911e+03 -2.9358882513e+00 4.6111065839e-01 9.2190377823e-01 1.4398432128e+00 -1.6746827926e+00 4.3338625770e+00 -2.1051539790e+00 2.2346229751e+01
6.2000000000e-02 2.3211909279e+03 -3.3095858933e+00 -1.9406658793e+00 -3.1010531961e-01 1.5110621248e+00 -3.1743276472e+00 3.5885026942e+00 -3.3067701579e+00 2.6111627076e+01
6.3000000000e-02 2.3330443835e+03 -2.7980348889e+00 -1.5630030948e+00 -6.2151992185e-01 1.3896552959e+00 -2.5861797629e+00 3.8457638199e+00 -3.6807860829e+00 2.2300841563e+01
6.4000000000e-02 2.3424505693e+03 -1.9322730541e+00 -1.7893117940e+00 -4.1112717758e-01 1.0230811656e+00 -2.4159597766e+00 3.8206089844e+00 -2.4971230809e+00 1.5377611934e+01
6.5000000000e-02 2.3546593356e+03 4.5625445124e-02 -3.6760449574e+00 -2.9629034599e+00 9.1481801747e-01 -2.9264852735e+00 2.8535376700e+00 -5.1476199754e+00 1.1683870946e+01
6.6000000000e-02 2.3659115481e+03 2.4274221059e+00 -6.8761817349e+00 -8.9405468104e-01 -6.0569099171e-01 -1.8952214662e+00 2.8933261900e+00 -5.9367725420e-01 4.5963286117e-01
6.7000000000e-02 2.3793764491e+03 2.7465913080e+00 -6.0456861884e+00 -9.7945361100e-01 -8.9152376101e-01 -2.0143103016e+00 4.1314484480e+00 -6.9053688713e-01 -9.3200356484e+00
6.8000000000e-02 2.3948859972e+03 3.8467647852e+00 -6.0092019989e+00 1.5777152246e+00 -6.2966878283e-01 9.0463766992e-01 2.7466040359e+00 2.1021427239e+00 -1.3510443059e+01
6.9000000000e-02 2.4103563257e+03 3.4837958342e+00 -4.5822610801e+00 4.7625293247e+00 -1.0644200054e+00 1.0163920956e+00 1.8749126195e+00 2.2847124591e+00 -1.8331852636e+01
7.0000000000e-02 2.4241091560e+03 2.0875281120e+00 -2.9484446616e+00 6.6617196480e+00 -2.8196396104e-01 1.8656264071e+00 2.4281086409e+00 1.7639630862e+00 -1.7037659071e+01
7.1000000000e-02 2.4337300096e+03 1.1748095141e+00 -7.0814427376e-01 9.2277219842e+00 -4.5473286210e-01 1.0347818085e+00 -1.0627934750e-01 3.2532239052e+00 -1.2025702585e+01
7.2000000000e-02 2.4435687098e+03 1.8543320565e+00 2.2204643642e+00 8.9317612841e+00 -5.2922379736e-01 7.3687345713e-01 3.5617117846e-01 1.2984554262e+00 -5.6899665158e+00
7.3000000000e-02 2.4522888451e+03 -1.0339017299e+00 4.3837930476e+00 1.0789288633e+01 3.3373096884e-01 -4.3810291502e-01 1.8211111861e+00 -1.7674896905e+00 3.7890780939e+00
7.4000000000e-02 2.4638372105e+03 -9.6283383111e-01 3.2015451021e+00 8.5332657964e+00 3.3875627144e-02 7.6197328895e-01 2.2422284891e+00 -1.0656749748e+00 1.0359880271e+01
7.5000000000e-02 2.4749654706e+03 -8.5848101265e-01 2.0199483068e+00 6.8383920159e+00 5.0202525987e-01 -1.0438439855e+00 3.2721320291e+00 -2.1620490104e+00 1.2786094580e+01
7.6000000000e-02 2.4863867614e+03 -2.0794537939e+00 2.9159374707e+00 3.3699055855e+00 3.6320716920e-01 -7.7243960127e-01 4.1404203652e+00 -1.1778400702e+00 1.2341068334e+01
7.7000000000e-02 2.4937055331e+03 -2.6836886010e+00 3.5980122215e+00 3.4354765059e+00 1.1071821572e+00 -2.0257045507e-01 3.8963925274e+00 -2.9655145605e+00 1.2708255834e+01
7.8000000000e-02 2.5005805000e+03 -4.5242008742e+00 6.6129844322e-01 -6.3181168457e-01 1.1779746260e+00 -1.2564441461e+00 6.1095582764e+00 -1.0901305233e+00 1.0063322305e+01
7.9000000000e-02 2.5092956374e+03 -1.8393273015e+00 -5.4039596342e+00 4.1527617461e-01 8.4565025788e-01 -3.6095516230e+00 4.1548545514e+00 -3.1093382813e-01 5.1881253434e+00
8.0000000000e-02 2.5168888778e+03 -1.9449856635e+00 -8.5272943293e+00 1.3638184017e+00 1.5419993807e+00 -2.1074036692e+00 2.4714718705e+00 6.5567074037e-01 2.9186129465e+00
8.1000000000e-02 2.5224886050e+03 -1.8793429496e+00 -6.3532537323e+00 2.6209257524e+00 1.8409103022e+00 -1.9183768661e+00 2.2178552705e+00 4.3479235929e-01 1.4104305120e-01
8.2000000000e-02 2.5307649129e+03 -1.9281202777e+00 -5.9109680280e+00 7.1618463872e+00 8.5766799302e-01 -1.3837798105e+00 1.2182552123e+00 3.6037246053e-01 -3.2626401058e+00
8.3000000000e-02 2.5375480740e+03 -1.2120213038e+00 -5.1176913028e+00 1.0477714885e+01 1.0766278305e+00 2.3533875174e-01 1.7956391865e-01 -1.0549176302e-01 -4.5088206800e+00
8.4000000000e-02 2.5427369437e+03 -6.1371692418e-01 -1.1088611204e+00 1.2486183234e+01 1.2618617579e+00 7.3163969005e-01 -1.2730577058e+00 6.0228242861e-01 -6.4516068556e+00
8.5000000000e-02 2.5457934220e+03 1.5839800564e+00 2.7722420213e+00 1.2465952674e+01 1.1352951110e+00 6.8225455127e-01 -7.8676699724e-02 -2.6339596667e-01 -5.8469269128e+00
8.6000000000e-02 2.5511409569e+03 1.9646390410e+00 2.7937810179e+00 1.3348992719e+01 8.1375151242e-01 2.2083342901e+00 7.1884215397e-01 -9.4087782256e-01 -5.3757184734e+00
8.7000000000e-02 2.5564684456e+03 2.7500891241e+00 1.2925603215e+00 1.0182217116e+01 2.1306780614e+00 2.5504960872e+00 1.2196277945e+00 -1.0622252917e+00 -6.1223427918e+00
8.8000000000e-02 2.5625329453e+03 3.4496352457e+00 6.5828625437e-02 8.2151183255e+00 3.7532774331e+00 3.4076041613e+00 1.7621922281e+00 9.1272630475e-01 -5.3217755183e+00
8.9000000000e-02 2.5667651234e+03 3.1368457383e+00 -1.4652615201e+00 6.3621758210e+00 3.1179453648e+00 2.9979085381e+00 4.3903514574e+00 7.9273741905e-01 -3.2863833485e+00
9.0000000000e-02 2.5719495076e+03 1.7809425791e+00 -2.8484234866e+00 5.2743342127e+00 2.2945616555e+00 6.1935400428e-01 6.4670486487e+00 3.7092276403e-01 -2.4064373071e+00
9.1000000000e-02 2.5767779442e+03 -1.3350932025e-01 -4.3360247068e+00 5.0655492013e+00 1.0894933195e+00 -6.3713321809e-01 7.2652058926e+00 -4.3747429632e-01 -3.1281570233e+00
9.2000000000e-02 2.5816092690e+03 -3.6311445171e-01 -4.8259231835e+00 6.1961448245e+00 7.0930127801e-01 -4.5179448062e-01 6.4538323797e+00 6.9862707587e-01 -1.6318292099e+00
9.3000000000e-02 2.5837108122e+03 -3.5665853877e-01 -4.3344102315e+00 7.4120897976e+00 1.2105763589e+00 -1.2358903513e+00 6.7060607882e+00 1.7789311212e+00 -1.0559362650e+00
9.4000000000e-02 2.5886530395e+03 -4.2988498991e-01 -2.2323316535e+00 9.4642021823e+00 -2.4646532312e-01 -1.7460928804e+00 5.9305483634e+00 1.4736407432e+00 -4.3009993039e+00
9.5000000000e-02 2.5932601982e+03 -5.8108452971e-01 -1.2341811513e+00 1.2404790975e+01 -8.8403921636e-01 -1.3897389614e+00 5.1461921082e+00 6.7141625413e-01 -6.7815015407e+00
9.6000000000e-02 2.5950255646e+03 5.4659721952e-01 -3.0174593219e-02 1.3833293296e+01 6.6413552525e-02 -7.0040262440e-01 5.2938910551e+00 1.2841828750e+00 -9.2928036259e+00
9.7000000000e-02 2.5959626639e+03 8.3368044019e-02 1.2338124127e+00 1.4636113900e+01 3.6696061501e-01 1.0147203880e-01 8.8607306900e+00 2.3288458121e+00 -1.0627864193e+01
9.8000000000e-02 2.5967995675e+03 -5.4054885583e-01 7.6285442266e-01 1.4292396077e+01 3.0143053384e-01 1.8110867191e-02 8.4868531101e+00 2.6805508799e+00 -1.2700337355e+01
9.8266740650e-02 2.5972352917e+03 -4.1694574425e-01 3.1372607016e-01 1.4209459980e+01 3.5570664183e-01 6.1610053222e-01 7.9898091189e+00 2.4466213205e+00 -1.3492119004e+01
9.9000000000e-02 2.5978073136e+03 1.2074028174e+00 -1.5716520199e+00 1.3620399905e+01 1.4750634230e+00 1.6561866646e+00 7.5972616077e+00 2.4922165619e+00 -1.4370757992e+01
1.0000000000e-01 2.5987697342e+03 4.1225105301e+00 -3.0086474368e+00 1.3721765283e+01 2.3828685193e+00 1.1301326442e+00 7.2888476195e+00 2.2565431497e+00 -1.3628792194e+01
1.0100000000e-01 2.5995414292e+03 5.8305598629e+00 -5.4501412650e+00 1.5483706322e+01 1.9005550982e+00 1.7944101412e+00 9.9195014755e+00 1.4891561713e+00 -1.2062540236e+01
1.0200000000e-01 2.5999348563e+03 7.2372633222e+00 -7.6131774075e+00 1.4856226190e+01 1.5947403531e+00 2.0337241726e-01 1.1787983018e+01 1.5475571623e+00 -1.0448741762e+01
1.0300000000e-01 2.5995399327e+03 6.5897172763e+00 -1.0059912162e+01 1.5035541935e+01 1.2844528315e+00 -9.4125909545e-01 1.2458603130e+01 2.4640503709e+00 -8.8625262388e+00
1.0400000000e-01 2.5982699596e+03 6.1486358111e+00 -1.1436558388e+01 1.5511160841e+01 1.5272976718e+00 -6.8813619571e-01 1.3022898608e+01 4.8063707406e+00 -8.2297393355e+00
1.0500000000e-01 2.5959343748e+03 6.6512987776e+00 -9.3550528490e+00 1.5774488633e+01 2.0280442271e+00 -1.1920034723e+00 1.3926003461e+01 5.7537532559e+00 -8.9662459595e+00
1.0600000000e-01 2.5957959325e+03 7.5671653211e+00 -8.1738819532e+00 1.6287592311e+01 1.8165400861e+00 -1.1856924250e+00 1.3723169961e+01 6.2752424146e+00 -1.0646781122e+01
1.0700000000e-01 2.5949590847e+03 9.8587860917e+00 -8.1284876760e+00 1.7408218957e+01 1.2816891919e+00 -1.0976583315e+00 1.2921844325e+01 6.5069728648e+00 -1.0589394348e+01
1.0800000000e-01 2.5914949588e+03 1.1416779632e+01 -6.6654477490e+00 1.6382414328e+01 1.5498584969e+00 -1.4878765833e+00 1.1958177259e+01 6.7172073806e+00 -8.7166999142e+00
1.0900000000e-01 2.5882508771e+03 1.2256943761e+01 -6.0118244490e+00 1.4197290317e+01 1.5931619222e+00 -2.5821861149e+00 1.0990474949e+01 6.8986309904e+00 -7.1030552371e+00
1.1000000000e-01 2.5850974660e+03 1.2154308050e+01 -6.6551532176e+00 1.4365258363e+01 1.0239130089e+00 -4.4439799574e+00 9.0940323061e+00 7.6111932701e+00 -7.5123141339e+00
1.1100000000e-01 2.5824590322e+03 1.1520404026e+01 -7.2778970434e+00 1.4268201974e+01 3.6202934633e-01 -6.2047930044e+00 7.0873503303e+00 7.4578903631e+00 -7.4839878921e+00
1.1200000000e-01 2.5799551886e+03 1.1535039758e+01 -6.7119489837e+00 1.2666244986e+01 -1.1081489474e+00 -8.7262791522e+00 5.8498769417e+00 7.0643572393e+00 -6.8195183971e+00
1.1300000000e-01 2.5780762329e+03 1.1140447074e+01 -5.7972646982e+00 9.9827521163e+00 -2.3501776764e+00 -1.1092943687e+01 3.0789609394e+00 5.9811751317e+00 -5.4021348331e+00
1.1400000000e-01 2.5778281378e+03 8.4523612728e+00 -6.4690462453e+00 7.3938905458e+00 -3.0471609216e+00 -1.3085909409e+01 -1.3759534735e+00 4.5126421535e+00 -5.2002308002e+00
1.1500000000e-01 2.5772028296e+03 6.5652187888e+00 -7.8848885286e+00 5.0226590226e+00 -2.3146103596e+00 -1.4650005416e+01 -6.3475225510e+00 2.8865444747e+00 -5.1855319321e+00
1.1500187918e-01 2.5772085081e+03 6.5606459521e+00 -7.8912179598e+00 5.0119448853e+00 -2.3170939972e+00 -1.4650256648e+01 -6.3652491871e+00 2.8809013384e+00 -5.1877534262e+00
1.1600000000e-01 2.5767313241e+03 4.5911862183e+00 -9.2311534408e+00 6.4119146235e+00 -1.0129819976e+00 -1.5505649059e+01 -1.1567431570e+01 -8.1590499616e-01 -5.6272125263e+00
1.1700000000e-01 2.5757223028e+03 3.7433315596e+00 -1.0248519910e+01 7.7177966812e+00 -3.0962124764e-01 -1.6057363668e+01 -1.5772049112e+01 -5.2667955987e+00 -5.6784984450e+00
1.1800000000e-01 2.5748562665e+03 3.0372301102e+00 -9.5142885758e+00 7.5739001112e+00 1.1154508678e+00 -1.4465424911e+01 -1.8697533154e+01 -7.6728174746e+00 -5.8353537599e+00
1.1900000000e-01 2.5737324975e+03 2.7256260655e+00 -8.0606903430e+00 6.3685960507e+00 2.1913561105e+00 -1.2184953332e+01 -2.1108068729e+01 -8.5944137274e+00 -7.7671916874e+00
